time (s)	magX	magY	magZ
9136.392228	101.701927	-15.409700	-22.085331
9136.395558	100.299240	-14.533022	-22.202221
9136.398891	99.247223	-14.766802	-21.442432
9136.402221	97.669197	-14.123903	-22.202221
9136.405555	96.383400	-13.656342	-21.033314
9136.408892	95.506714	-13.539450	-21.734659
9136.412219	94.571594	-13.130333	-21.559322
9136.415555	93.285797	-12.896551	-21.383987
9136.418889	92.175339	-12.604326	-21.793104
9136.422233	91.240211	-12.545879	-20.799534
9136.425554	90.012856	-11.961426	-21.208651
9136.428883	89.311508	-11.669199	-22.260666
9136.432211	88.201050	-11.260082	-22.669785
9136.435554	87.499702	-10.967855	-22.377558
9136.438882	87.032143	-10.617184	-22.202221
9136.442218	85.921684	-10.208065	-21.676214
9136.445555	85.512558	-10.208065	-21.617767
9136.448887	84.635887	-10.441847	-21.033314
9136.452212	83.583870	-10.266510	-20.857979
9136.455549	82.648743	-9.682056	-21.734659
9136.458885	81.713615	-8.746931	-22.143776
9136.462217	81.187607	-9.039158	-21.617767
9136.465564	80.661598	-8.688486	-21.442432
9136.468885	79.551140	-8.922268	-22.026886
9136.472216	78.323784	-7.636471	-21.793104
9136.475552	78.206894	-7.168907	-22.085331
9136.478881	77.096436	-7.578026	-21.617767
9136.482215	76.219749	-7.694916	-22.202221
9136.485546	75.810638	-7.694916	-21.793104
9136.488881	75.518410	-7.110462	-22.728230
9136.492209	74.992401	-6.876680	-23.020456
9136.495578	74.115715	-6.759790	-22.436005
9136.498876	73.297485	-6.526009	-22.728230
9136.502210	72.479248	-6.175337	-23.078903
9136.505546	71.661011	-5.824663	-23.371128
9136.508906	70.550560	-5.649328	-23.488018
9136.512207	70.842781	-5.123320	-23.429573
9136.515541	70.316772	-5.415546	-23.195793
9136.518874	70.258331	-5.181765	-23.312683
9136.522212	69.615425	-5.240210	-22.728230
9136.525542	69.907654	-5.064875	-22.611340
9136.528879	69.790764	-4.947983	-22.552895
9136.532204	69.264755	-4.655756	-23.078903
9136.535536	69.498535	-4.889538	-23.312683
9136.538875	68.972527	-4.305084	-22.377558
9136.542209	69.147865	-4.363531	-21.676214
9136.545535	69.264755	-4.188194	-22.202221
9136.548866	69.147865	-4.188194	-22.728230
9136.552232	69.323204	-4.363531	-22.260666
9136.555538	69.323204	-3.720631	-21.909996
9136.558865	69.030975	-3.077732	-22.026886
9136.562199	69.673874	-3.077732	-21.968441
9136.565543	69.732315	-2.785505	-22.260666
9136.568870	70.082985	-2.960842	-21.909996
9136.572203	69.732315	-2.376389	-21.734659
9136.575544	70.609001	-2.493280	-21.208651
9136.578873	70.550560	-2.902397	-21.208651
9136.582203	70.609001	-2.376389	-21.500877
9136.585537	71.193451	-2.610170	-21.968441
9136.588872	71.193451	-1.850380	-21.150206
9136.592203	71.661011	-1.967272	-22.319113
9136.595546	70.959671	-2.142607	-22.085331
9136.598867	71.544121	-2.493280	-21.676214
9136.602194	71.719460	-1.908827	-21.968441
9136.605535	72.011688	-1.850380	-21.851551
9136.608883	72.187027	-1.558153	-21.383987
9136.612197	72.187027	-1.090590	-21.851551
9136.615535	72.479248	-1.207480	-21.851551
9136.618866	72.187027	-1.265926	-21.617767
9136.622197	72.596138	-1.558153	-22.202221
9136.625536	72.946808	-1.090590	-21.968441
9136.628862	73.239044	-0.447691	-22.319113
9136.632229	73.180595	-0.681473	-22.319113
9136.635530	73.414375	-0.564582	-22.669785
9136.638874	73.355934	-0.330801	-22.552895
9136.642200	73.648155	0.019872	-22.669785
9136.645526	74.174164	0.428988	-22.494450
9136.648858	75.167732	0.136762	-22.494450
9136.652196	75.401512	0.078317	-22.552895
9136.655524	75.927528	0.428988	-23.254238
9136.658859	76.628868	0.662770	-22.319113
9136.662195	77.037987	0.662770	-22.026886
9136.665528	77.914665	0.428988	-22.085331
9136.668906	78.791344	0.779661	-22.845119
9136.673462	80.486259	1.247224	-22.026886
9136.676859	81.538277	1.364114	-21.383987
9136.680234	82.181183	1.773232	-22.143776
9136.683554	83.291641	1.831676	-21.500877
9136.686881	84.460548	2.533022	-21.559322
9136.690197	85.804794	2.240795	-21.500877
9136.693480	86.915253	2.182349	-21.091759
9136.696812	87.908821	2.825248	-21.559322
9136.700225	88.843948	3.059030	-20.624197
9136.703530	90.188194	3.351256	-20.565752
9136.706453	91.883102	3.818819	-20.565752
9136.709774	92.409119	3.994155	-20.448860
9136.713455	93.987137	4.111046	-20.682644
9136.716813	95.623604	4.403273	-20.682644
9136.719770	96.734070	4.344828	-20.390415
9136.723054	98.078316	4.578609	-20.448860
9136.726496	99.656342	4.987726	-19.513737
9136.729803	100.649910	5.338398	-19.572182
9136.733100	102.169487	5.689071	-19.805962
9136.736375	103.455284	5.922852	-19.805962
9136.739711	104.799530	6.156633	-18.169493
9136.743023	105.968437	6.799532	-18.753946
9136.746381	107.780243	6.799532	-19.455292
9136.749728	108.949150	7.383986	-18.870838
9136.753110	110.468735	7.559322	-18.520164
9136.756460	112.514320	7.442431	-18.695501
9136.759705	113.624779	8.494448	-18.403275
9136.763084	115.027466	8.143775	-17.760374
9136.766368	117.365280	8.728230	-19.046173
9136.769766	119.001747	9.312682	-18.052603
9136.773063	120.287552	9.721800	-17.818819
9136.776439	122.800697	10.423143	-17.059031
9136.779783	124.846291	11.358270	-17.175920
9136.783037	128.236115	11.358270	-16.182350
9136.786353	130.457047	12.468732	-16.240795
9136.789697	133.087082	12.585622	-15.422562
9136.793056	135.717133	13.462302	-14.721216
9136.796388	138.288727	14.572764	-14.545881
9136.799764	140.158966	15.098772	-13.260082
9136.803121	142.905914	16.326124	-11.974285
9136.806466	145.945068	17.787258	-11.623613
9136.809695	149.919357	18.488604	-11.448277
9136.813043	153.659851	19.306837	-10.045589
9136.816362	156.289902	20.008183	-8.409119
9136.819715	159.504379	21.001753	-8.292227
9136.823054	163.303329	22.229105	-5.720633
9136.826465	167.160736	22.872005	-4.610170
9136.829817	170.959686	24.333138	-2.564585
9136.833027	175.576859	25.618937	-1.571011
9136.836360	179.551147	26.787842	0.708359
9136.839691	183.876099	27.839859	1.643482
9136.843053	188.084167	29.593220	4.624195
9136.846385	192.467560	30.411457	5.500874
9136.849344	197.084747	32.164818	7.254238
9136.852628	201.526596	33.509056	9.533607
9136.856025	206.786682	34.677963	12.397427
9136.859269	210.702515	36.314438	14.209232
9136.862599	216.196396	37.892460	17.482170
9136.865930	221.047348	39.528931	19.001751
9136.869278	225.956741	41.866745	21.807133
9136.872626	231.216827	43.152542	24.729397
9136.875935	236.535355	45.490356	27.885448
9136.879264	241.503204	47.302162	30.457043
9136.882618	246.295731	49.639977	34.139103
9136.885955	252.023376	51.860901	37.295147
9136.889295	257.400360	54.023376	39.808300
9136.892674	262.952637	56.711868	43.957920
9136.895930	268.271179	59.283463	47.990650
9136.899264	274.700165	61.621277	51.672710
9136.902599	281.421387	64.835770	55.939213
9136.905934	287.791931	67.991821	61.608418
9136.909257	294.805359	71.673874	66.342484
9136.912597	301.175903	74.713036	72.128571
9136.915945	308.072449	78.804207	77.797775
9136.919279	315.261261	82.427818	84.402100
9136.922617	322.099365	86.928108	90.947983
9136.926025	329.288116	90.785500	97.961426
9136.929264	337.295135	95.694908	105.383987
9136.932593	344.834595	100.136765	113.098770
9136.935950	353.016937	105.046173	122.216248
9136.939262	361.666840	110.481590	132.035065
9136.942598	369.264740	116.501457	140.626526
9136.945924	377.973114	122.229103	151.964920
9136.949252	385.395660	128.424316	163.011093
9136.952634	393.870239	135.729996	174.232605
9136.955949	401.292816	142.568085	186.330795
9136.959275	410.059631	149.230850	198.662750
9136.962205	417.248383	156.828751	211.696075
9136.965923	425.313843	164.952652	225.781403
9136.969254	432.093506	172.784332	241.444763
9136.972593	439.749847	182.018707	254.887207
9136.975495	447.055511	190.201050	271.368774
9136.978852	453.601379	199.376968	286.506134
9136.982164	459.621277	208.903564	302.812378
9136.985498	464.530701	217.670380	320.579773
9136.988828	469.498535	228.190521	338.113373
9136.992159	474.115723	237.892471	355.004089
9136.995497	478.265320	248.120392	374.057281
9136.998821	480.895355	258.289886	391.415558
9137.002158	485.454102	268.751617	410.293396
9137.005491	486.915222	280.265350	428.820557
9137.008824	488.142609	291.311493	447.873749
9137.012159	488.142609	303.234375	467.452942
9137.015496	486.623016	314.923431	487.207458
9137.018830	485.863251	326.963165	505.909973
9137.022175	481.596741	338.710693	525.021606
9137.025488	477.505524	350.984222	544.834595
9137.028826	472.596161	364.309753	564.647583
9137.032157	466.751617	376.992401	584.518982
9137.035489	459.387482	389.441254	604.039734
9137.038820	450.854462	402.766815	622.859131
9137.042159	440.918762	416.384583	641.503174
9137.045484	429.989471	428.482758	659.153687
9137.048818	417.715973	441.808289	677.564026
9137.052153	403.279968	454.783173	694.337769
9137.055489	388.025696	467.348938	710.760986
9137.058820	371.135010	480.323761	727.651672
9137.062156	352.490936	492.305054	743.198120
9137.065490	332.970184	505.513733	757.224976
9137.068825	312.280518	517.027466	770.667480
9137.072156	289.603729	527.898315	783.057861
9137.075488	266.108704	538.009338	793.870239
9137.078819	242.613663	548.061951	802.929321
9137.082171	216.839279	557.120972	811.403870
9137.085489	190.363541	564.952637	818.183533
9137.088816	163.303329	572.842773	822.333130
9137.092148	135.658691	577.635315	825.255371
9137.095502	107.604912	582.427795	826.482788
9137.098820	79.258904	585.466980	826.307373
9137.102152	50.737583	588.623047	824.729370
9137.105485	22.859146	589.441284	822.099426
9137.108814	-5.895967	589.441284	816.079529
9137.112153	-32.605492	588.915222	809.299866
9137.115483	-59.841030	586.051453	800.474548
9137.118813	-85.498543	583.129150	790.363525
9137.122149	-110.396263	578.745789	780.603149
9137.125506	-134.592636	573.310364	768.914124
9137.128814	-157.503220	566.647583	755.646973
9137.132149	-178.835770	559.751038	740.334290
9137.135479	-199.876099	551.919373	726.015198
9137.138824	-219.046173	543.503235	711.462280
9137.142144	-236.404449	533.918152	695.506714
9137.145477	-253.295151	523.748657	678.382202
9137.148821	-268.549377	514.105225	661.257751
9137.152154	-283.043823	504.169495	643.665710
9137.155480	-296.895416	492.129730	624.787842
9137.158812	-308.058441	480.499115	606.728210
9137.162148	-318.753967	468.634735	587.207458
9137.165477	-328.105194	457.120972	568.797180
9137.168841	-337.164246	444.321472	549.627136
9137.172141	-345.171265	431.755707	531.392151
9137.175480	-351.015808	419.715942	511.579163
9137.178808	-356.801880	407.033295	493.578003
9137.182151	-361.535950	394.467560	474.057281
9137.185474	-365.802460	382.661621	455.588531
9137.188807	-367.906494	369.745178	436.418488
9137.192142	-369.659851	356.653412	417.131531
9137.195476	-371.413239	345.139679	398.136749
9137.198810	-372.406799	332.340149	380.252441
9137.202136	-371.530090	320.534180	362.485107
9137.205472	-370.244293	307.734650	346.120392
9137.208808	-368.841614	296.688477	328.528320
9137.212144	-366.328461	285.057861	312.163635
9137.215489	-364.399780	274.070129	296.149597
9137.218808	-361.009949	262.614868	280.603149
9137.222136	-357.444794	252.386902	265.641144
9137.225482	-353.061371	242.509628	250.620667
9137.228800	-348.327301	232.807709	236.827576
9137.232138	-343.651672	222.229111	224.963165
9137.235470	-339.385162	213.579193	211.053177
9137.238802	-333.482178	204.637054	199.656342
9137.242137	-328.572754	195.519577	188.434845
9137.245471	-322.903595	187.044998	178.382233
9137.248805	-318.052612	179.271774	169.147873
9137.252135	-311.740509	171.907654	158.919937
9137.255486	-306.363525	165.244888	149.510223
9137.258804	-300.343689	158.114548	140.451187
9137.262133	-295.142029	151.568665	132.677963
9137.265466	-289.122162	145.899475	125.255402
9137.268801	-283.219177	140.054932	118.475739
9137.272136	-278.134430	133.918167	111.520737
9137.275466	-272.757446	128.424316	105.033310
9137.278798	-267.263611	123.631790	99.188766
9137.282177	-262.237305	119.131500	93.987152
9137.285462	-256.626556	114.514320	87.499710
9137.288803	-251.307999	110.481590	83.759201
9137.292131	-246.340134	106.624199	77.856216
9137.295460	-241.372299	102.591469	73.297485
9137.298824	-236.287552	98.208061	68.504974
9137.302132	-232.079483	94.993568	64.589127
9137.305466	-227.111633	91.194626	61.374630
9137.308793	-222.143768	88.272354	56.991230
9137.312137	-217.760376	85.174751	52.666271
9137.315457	-212.967850	82.310928	49.977787
9137.318795	-208.350662	78.862656	46.295727
9137.322134	-204.025696	76.057274	42.905903
9137.325456	-198.531845	72.901222	39.925190
9137.328793	-194.674454	70.680305	36.944477
9137.332128	-190.700165	68.225601	34.314434
9137.335459	-186.258316	65.829338	31.099941
9137.338797	-181.699585	63.433075	28.528343
9137.342130	-178.134415	60.393921	26.132088
9137.345461	-174.043243	58.757454	22.742256
9137.348796	-170.068954	56.478081	20.287548
9137.352124	-166.153122	54.198715	17.715954
9137.355461	-162.237274	51.977791	16.371712
9137.358787	-158.613678	50.282875	14.501461
9137.362124	-155.574509	47.945061	12.222092
9137.365456	-151.600235	45.665691	10.702511
9137.368787	-148.736404	44.672119	8.832260
9137.372124	-144.937454	42.392754	6.962009
9137.375460	-142.073639	41.516075	5.793102
9137.378815	-138.391586	40.054939	3.747517
9137.382127	-136.170654	38.593803	2.870834
9137.385459	-133.189941	37.015778	1.409702
9137.388789	-131.027466	36.197548	0.299240
9137.392121	-128.748093	35.028641	0.182350
9137.395455	-125.708946	33.918175	-1.571011
9137.398784	-122.845131	32.866158	-2.330803
9137.402116	-121.150208	31.697252	-3.149038
9137.405453	-119.163063	30.528347	-4.317944
9137.408793	-116.883698	29.417885	-4.668617
9137.412153	-115.188774	28.716539	-5.311516
9137.415450	-112.792526	27.781414	-5.428406
9137.418788	-111.506721	27.372297	-6.421976
9137.422149	-109.694923	26.729397	-6.129749
9137.425453	-108.000008	25.969608	-6.947985
9137.428796	-105.895973	25.209820	-6.597313
9137.432118	-104.317947	24.625364	-7.181767
9137.435447	-103.207481	23.865576	-7.766220
9137.438779	-101.454124	23.164230	-7.941555
9137.442120	-100.168320	22.462887	-8.876680
9137.445452	-99.350098	21.995323	-9.227354
9137.448783	-98.181190	21.293980	-9.461136
9137.452120	-96.603157	21.177090	-9.519581
9137.455447	-95.142029	20.826416	-10.104034
9137.458780	-93.213326	20.183517	-10.513151
9137.462113	-92.336647	19.599064	-10.630041
9137.465472	-90.933960	18.780830	-11.448277
9137.468781	-90.057274	18.021040	-11.623613
9137.472124	-89.355934	17.845703	-11.915840
9137.475445	-87.836357	18.137930	-11.915840
9137.478781	-86.141441	17.319696	-12.266512
9137.482110	-84.738754	16.852133	-12.850965
9137.485447	-83.336060	16.326124	-13.084745
9137.488776	-82.225601	16.033897	-13.493864
9137.492110	-80.822914	14.455873	-13.260082
9137.495448	-80.530685	14.514318	-13.669201
9137.498772	-79.069557	13.812975	-14.019873
9137.502108	-78.543541	13.812975	-14.253654
9137.505441	-77.082413	13.053185	-14.954998
9137.508790	-76.264175	12.936295	-15.188780
9137.512111	-75.270607	12.644068	-14.721216
9137.515446	-74.803040	12.644068	-14.545881
9137.518778	-74.218590	12.118059	-15.013443
9137.522107	-72.815903	11.416716	-15.539452
9137.525440	-72.757454	11.475161	-15.948568
9137.528785	-72.465225	10.949152	-15.597897
9137.532140	-71.237877	10.656925	-16.299240
9137.535441	-70.887199	10.364698	-14.428989
9137.538772	-70.244308	10.189363	-15.364115
9137.542110	-69.718292	9.955582	-15.422562
9137.545439	-69.484512	9.371128	-16.240795
9137.548775	-68.666283	9.429573	-15.714788
9137.552136	-68.198715	8.962010	-15.539452
9137.555436	-68.432495	9.488018	-14.721216
9137.558770	-67.906494	9.488018	-15.481007
9137.562109	-68.140274	9.078901	-15.364115
9137.565433	-67.731155	9.078901	-15.422562
9137.568776	-67.205147	8.669784	-15.714788
9137.572103	-67.672714	8.494448	-15.130335
9137.575434	-67.146698	8.845119	-15.305670
9137.578767	-66.912918	8.552893	-15.013443
9137.582104	-67.029808	8.494448	-15.773233
9137.585432	-67.029808	8.260666	-15.948568
9137.588763	-66.796028	8.202221	-15.831678
9137.592101	-66.445358	8.026884	-15.247225
9137.595442	-66.737587	7.617767	-15.597897
9137.598771	-66.328468	7.734658	-14.954998
9137.602100	-66.153130	7.676212	-14.896553
9137.605434	-65.627121	7.442431	-14.487436
9137.608770	-65.977791	7.325541	-15.364115
9137.612101	-65.042671	7.617767	-15.656342
9137.615436	-64.867332	7.383986	-15.656342
9137.618768	-64.633545	6.916423	-15.597897
9137.622097	-65.042671	6.624197	-16.123905
9137.625428	-64.633545	6.916423	-16.474577
9137.628767	-63.990650	6.448860	-16.299240
9137.632103	-64.984222	6.273523	-16.299240
9137.635431	-64.458214	6.156633	-16.649914
9137.638760	-64.049095	5.922852	-16.474577
9137.642100	-63.990650	5.864407	-16.357687
9137.645432	-64.165985	5.572180	-16.649914
9137.648769	-64.399765	5.805961	-16.825249
9137.652092	-63.639973	5.455289	-16.474577
9137.655471	-64.458214	5.104617	-16.123905
9137.660051	-64.925774	5.455289	-16.123905
9137.663395	-65.159561	5.163062	-16.649914
9137.666779	-65.334892	5.396844	-16.065460
9137.670170	-65.685562	4.987726	-16.533022
9137.673507	-65.685562	4.344828	-16.825249
9137.676755	-66.094681	4.344828	-16.591467
9137.680076	-67.146698	4.753945	-16.299240
9137.683449	-67.672714	4.520164	-15.773233
9137.686786	-68.374054	4.052600	-15.714788
9137.690139	-68.783173	3.760373	-16.007015
9137.693444	-69.601402	4.637054	-15.597897
9137.696734	-70.127419	3.818819	-15.305670
9137.700082	-70.185860	4.052600	-15.481007
9137.703442	-71.062538	3.643483	-14.721216
9137.706777	-71.237877	3.818819	-15.013443
9137.709664	-71.997665	3.234365	-14.487436
9137.713037	-72.406776	3.000585	-14.136765
9137.716688	-73.809471	3.117475	-13.961428
9137.719609	-74.919930	3.117475	-13.727646
9137.722979	-74.803040	2.942139	-14.195210
9137.726303	-76.030396	3.117475	-14.604326
9137.729688	-76.205727	3.059030	-13.318527
9137.733005	-77.374634	2.182349	-12.675629
9137.736283	-78.309761	2.708358	-13.260082
9137.739602	-78.601990	2.533022	-13.844538
9137.742962	-79.420227	2.299240	-12.967855
9137.746282	-80.004677	2.240795	-13.610756
9137.749624	-81.348923	2.474576	-12.675629
9137.752996	-81.991821	1.948567	-12.967855
9137.756382	-82.634720	2.007013	-13.376972
9137.759619	-83.219170	1.656341	-12.441847
9137.762934	-84.621864	1.597896	-13.143192
9137.766276	-84.972534	1.364114	-13.084745
9137.769635	-85.966103	1.422560	-12.324957
9137.772951	-87.018120	1.305669	-12.909410
9137.776343	-88.303917	1.247224	-12.383402
9137.779670	-89.472824	0.662770	-12.558739
9137.782992	-90.875511	0.428988	-11.915840
9137.786267	-91.226181	0.195208	-11.798948
9137.789602	-92.979546	-0.213910	-12.675629
9137.792932	-93.856224	-0.330801	-11.156050
9137.796277	-95.609596	-0.272355	-11.448277
9137.799714	-97.362946	-0.915254	-10.922268
9137.803017	-99.057861	-0.915254	-10.688488
9137.806323	-100.928116	-1.558153	-10.104034
9137.809602	-101.980125	-1.324371	-8.935127
9137.812940	-104.084167	-1.967272	-8.233782
9137.816261	-106.421982	-1.791935	-7.590883
9137.819613	-108.000008	-2.317944	-7.240211
9137.822946	-110.045586	-2.493280	-6.889540
9137.826338	-112.266518	-2.843952	-5.954414
9137.829232	-115.481010	-3.253069	-5.486851
9137.832553	-117.409706	-3.662186	-3.441265
9137.836267	-120.215080	-4.305084	-2.155468
9137.839589	-122.845131	-4.714203	-2.155468
9137.842541	-125.124489	-5.006430	-1.804790
9137.846280	-127.754539	-5.941555	-0.168324
9137.849165	-130.209229	-6.642900	0.708359
9137.852523	-133.482178	-6.701345	1.701927
9137.855862	-135.936874	-6.818235	2.111046
9137.859192	-139.034485	-7.227352	3.572178
9137.862509	-141.606079	-8.513151	5.267094
9137.865830	-144.879013	-9.156050	5.909992
9137.869169	-148.444183	-9.331385	8.014027
9137.872537	-150.840439	-9.857393	8.423145
9137.875838	-153.938049	-10.617184	9.825832
9137.879159	-157.094086	-10.967855	11.462303
9137.882495	-160.600815	-12.604326	11.696083
9137.885868	-164.224426	-13.247225	13.624779
9137.889186	-166.796021	-13.656342	15.085911
9137.892517	-170.419632	-14.825249	17.131500
9137.895891	-174.569260	-15.643482	19.644653
9137.899177	-178.426651	-16.870834	20.404438
9137.902494	-183.043823	-18.039743	22.216248
9137.905837	-186.667450	-18.857981	24.437168
9137.909163	-190.875504	-20.377558	26.716541
